Freq(Hz), SPL(dB)
20.187378, 104.718
20.523834, 104.836
20.860291, 104.945
21.196747, 105.067
21.533203, 105.214
21.869659, 105.379
22.206116, 105.547
22.542572, 105.701
22.879028, 105.830
23.215485, 105.937
23.551941, 106.032
23.888397, 106.128
24.224854, 106.234
24.561310, 106.353
24.897766, 106.480
25.234222, 106.608
25.570679, 106.731
25.907135, 106.843
26.243591, 106.945
26.580048, 107.037
26.916504, 107.121
27.252960, 107.200
27.589417, 107.279
27.925873, 107.361
28.262329, 107.448
28.598785, 107.538
28.935242, 107.630
29.271698, 107.718
29.608154, 107.803
29.944611, 107.885
30.281067, 107.966
30.617523, 108.049
30.953979, 108.130
31.290436, 108.207
31.626892, 108.277
31.963348, 108.342
32.299805, 108.404
32.636261, 108.463
32.972717, 108.517
33.309174, 108.557
33.645630, 108.580
33.982086, 108.587
34.318542, 108.592
34.654999, 108.612
34.991455, 108.661
35.327911, 108.739
35.664368, 108.829
36.000824, 108.910
36.337280, 108.963
36.673737, 108.986
37.010193, 108.990
37.346649, 108.992
37.683105, 109.008
38.019562, 109.043
38.356018, 109.084
38.692474, 109.117
39.028931, 109.129
39.365387, 109.117
39.701843, 109.091
40.038300, 109.061
40.374756, 109.038
40.711212, 109.024
41.047668, 109.016
41.384125, 109.014
41.720581, 109.017
42.057037, 109.028
42.393494, 109.047
42.729950, 109.072
43.066406, 109.103
43.402863, 109.137
43.739319, 109.179
44.075775, 109.237
44.412231, 109.316
44.748688, 109.416
45.085144, 109.528
45.421600, 109.636
45.758057, 109.723
46.094513, 109.783
46.430969, 109.816
46.767426, 109.831
47.103882, 109.841
47.440338, 109.851
47.776794, 109.859
48.113251, 109.857
48.449707, 109.837
48.786163, 109.798
49.122620, 109.746
49.459076, 109.698
49.795532, 109.670
50.131989, 109.672
50.468445, 109.704
50.804901, 109.756
51.141357, 109.815
51.477814, 109.871
51.814270, 109.918
52.150726, 109.954
52.487183, 109.977
52.823639, 109.988
53.160095, 109.990
53.496552, 109.984
53.833008, 109.974
54.169464, 109.958
54.505920, 109.934
54.842377, 109.898
55.178833, 109.851
55.515289, 109.798
55.851746, 109.748
56.188202, 109.711
56.524658, 109.682
56.861115, 109.652
57.197571, 109.604
57.534027, 109.529
57.870483, 109.432
58.206940, 109.332
58.543396, 109.250
58.879852, 109.193
59.216309, 109.152
59.552765, 109.101
59.889221, 109.026
60.225677, 108.929
60.562134, 108.838
60.898590, 108.786
61.235046, 108.792
61.571503, 108.839
61.907959, 108.890
62.244415, 108.903
62.580872, 108.859
62.917328, 108.769
63.253784, 108.661
63.590240, 108.565
63.926697, 108.494
64.263153, 108.443
64.599609, 108.395
64.936066, 108.335
65.272522, 108.260
65.608978, 108.177
65.945435, 108.099
66.281891, 108.032
66.618347, 107.974
66.954803, 107.910
67.291260, 107.826
67.627716, 107.711
67.964172, 107.567
68.300629, 107.404
68.637085, 107.237
68.973541, 107.079
69.309998, 106.941
69.646454, 106.834
69.982910, 106.764
70.319366, 106.734
70.655823, 106.737
70.992279, 106.761
71.328735, 106.792
71.665192, 106.822
72.001648, 106.845
72.338104, 106.859
72.674561, 106.861
73.011017, 106.855
73.347473, 106.847
73.683929, 106.846
74.020386, 106.864
74.356842, 106.904
74.693298, 106.958
75.029755, 107.005
75.366211, 107.013
75.702667, 106.956
76.039124, 106.821
76.375580, 106.619
76.712036, 106.371
77.048492, 106.112
77.384949, 105.868
77.721405, 105.662
78.057861, 105.499
78.394318, 105.372
78.730774, 105.266
79.067230, 105.164
79.403687, 105.056
79.740143, 104.939
80.076599, 104.812
80.413055, 104.675
80.749512, 104.528
81.085968, 104.373
81.422424, 104.219
81.758881, 104.080
82.095337, 103.970
82.431793, 103.893
82.768250, 103.846
83.104706, 103.812
83.441162, 103.777
83.777618, 103.731
84.114075, 103.676
84.450531, 103.620
84.786987, 103.568
85.123444, 103.517
85.459900, 103.458
85.796356, 103.385
86.132812, 103.297
86.469269, 103.205
86.805725, 103.120
87.142181, 103.050
87.478638, 102.995
87.815094, 102.943
88.151550, 102.882
88.488007, 102.809
88.824463, 102.730
89.160919, 102.660
89.497375, 102.611
89.833832, 102.590
90.170288, 102.590
90.506744, 102.602
90.843201, 102.619
91.179657, 102.641
91.516113, 102.678
91.852570, 102.737
92.189026, 102.824
92.525482, 102.933
92.861938, 103.053
93.198395, 103.172
93.534851, 103.283
93.871307, 103.386
94.207764, 103.485
94.544220, 103.586
94.880676, 103.689
95.217133, 103.797
95.553589, 103.911
95.890045, 104.033
96.226501, 104.168
96.562958, 104.320
96.899414, 104.487
97.235870, 104.661
97.572327, 104.831
97.908783, 104.987
98.245239, 105.121
98.581696, 105.226
98.918152, 105.298
99.254608, 105.333
99.591064, 105.329
99.927521, 105.282
100.263977, 105.196
100.600433, 105.076
100.936890, 104.931
101.273346, 104.771
101.609802, 104.609
101.946259, 104.457
102.282715, 104.331
102.619171, 104.239
102.955627, 104.186
103.292084, 104.165
103.628540, 104.162
103.964996, 104.166
104.301453, 104.171
104.637909, 104.182
104.974365, 104.209
105.310822, 104.262
105.647278, 104.340
105.983734, 104.435
106.320190, 104.534
106.656647, 104.629
106.993103, 104.716
107.329559, 104.796
107.666016, 104.871
108.002472, 104.943
108.338928, 105.014
108.675385, 105.088
109.011841, 105.165
109.348297, 105.246
109.684753, 105.323
110.021210, 105.387
110.357666, 105.431
110.694122, 105.456
111.030579, 105.470
111.367035, 105.485
111.703491, 105.505
112.039948, 105.529
112.376404, 105.550
112.712860, 105.561
113.049316, 105.561
113.385773, 105.559
113.722229, 105.570
114.058685, 105.609
114.395142, 105.681
114.731598, 105.779
115.068054, 105.886
115.404510, 105.971
115.740967, 106.010
116.077423, 105.993
116.413879, 105.938
116.750336, 105.890
117.086792, 105.904
117.423248, 106.018
117.759705, 106.224
118.096161, 106.469
118.432617, 106.662
118.769073, 106.721
119.105530, 106.610
119.441986, 106.380
119.778442, 106.161
120.114899, 106.101
120.451355, 106.236
120.787811, 106.473
121.124268, 106.673
121.460724, 106.747
121.797180, 106.679
122.133636, 106.511
122.470093, 106.325
122.806549, 106.202
123.143005, 106.171
123.479462, 106.189
123.815918, 106.190
124.152374, 106.128
124.488831, 106.008
124.825287, 105.872
125.161743, 105.768
125.498199, 105.719
125.834656, 105.710
126.171112, 105.708
126.507568, 105.682
126.844025, 105.626
127.180481, 105.557
127.516937, 105.494
127.853394, 105.449
128.189850, 105.417
128.526306, 105.387
128.862762, 105.349
129.199219, 105.301
129.535675, 105.247
129.872131, 105.193
130.208588, 105.138
130.545044, 105.078
130.881500, 105.008
131.217957, 104.928
131.554413, 104.842
131.890869, 104.755
132.227325, 104.670
132.563782, 104.589
132.900238, 104.509
133.236694, 104.430
133.573151, 104.350
133.909607, 104.270
134.246063, 104.191
134.582520, 104.109
134.918976, 104.025
135.255432, 103.933
135.591888, 103.830
135.928345, 103.717
136.264801, 103.595
136.601257, 103.471
136.937714, 103.354
137.274170, 103.251
137.610626, 103.163
137.947083, 103.084
138.283539, 103.005
138.619995, 102.916
138.956451, 102.812
139.292908, 102.695
139.629364, 102.573
139.965820, 102.454
140.302277, 102.345
140.638733, 102.248
140.975189, 102.162
141.311646, 102.085
141.648102, 102.017
141.984558, 101.955
142.321014, 101.895
142.657471, 101.832
142.993927, 101.762
143.330383, 101.689
143.666840, 101.616
144.003296, 101.553
144.339752, 101.501
144.676208, 101.457
145.012665, 101.413
145.349121, 101.362
145.685577, 101.305
146.022034, 101.253
146.358490, 101.222
146.694946, 101.220
147.031403, 101.243
147.367859, 101.273
147.704315, 101.286
148.040771, 101.271
148.377228, 101.228
148.713684, 101.177
149.050140, 101.137
149.386597, 101.122
149.723053, 101.131
150.059509, 101.156
150.395966, 101.186
150.732422, 101.215
151.068878, 101.242
151.405334, 101.269
151.741791, 101.299
152.078247, 101.327
152.414703, 101.351
152.751160, 101.370
153.087616, 101.386
153.424072, 101.400
153.760529, 101.415
154.096985, 101.429
154.433441, 101.443
154.769897, 101.455
155.106354, 101.466
155.442810, 101.477
155.779266, 101.486
156.115723, 101.490
156.452179, 101.489
156.788635, 101.482
157.125092, 101.475
157.461548, 101.474
157.798004, 101.481
158.134460, 101.491
158.470917, 101.498
158.807373, 101.495
159.143829, 101.482
159.480286, 101.467
159.816742, 101.459
160.153198, 101.463
160.489655, 101.479
160.826111, 101.497
161.162567, 101.506
161.499023, 101.503
161.835480, 101.490
162.171936, 101.476
162.508392, 101.468
162.844849, 101.471
163.181305, 101.483
163.517761, 101.498
163.854218, 101.509
164.190674, 101.515
164.527130, 101.517
164.863586, 101.516
165.200043, 101.514
165.536499, 101.512
165.872955, 101.508
166.209412, 101.503
166.545868, 101.498
166.882324, 101.494
167.218781, 101.496
167.555237, 101.503
167.891693, 101.515
168.228149, 101.530
168.564606, 101.544
168.901062, 101.552
169.237518, 101.554
169.573975, 101.547
169.910431, 101.536
170.246887, 101.523
170.583344, 101.512
170.919800, 101.504
171.256256, 101.500
171.592712, 101.498
171.929169, 101.495
172.265625, 101.491
172.602081, 101.485
172.938538, 101.479
173.274994, 101.473
173.611450, 101.468
173.947906, 101.464
174.284363, 101.457
174.620819, 101.446
174.957275, 101.428
175.293732, 101.406
175.630188, 101.379
175.966644, 101.352
176.303101, 101.328
176.639557, 101.308
176.976013, 101.294
177.312469, 101.284
177.648926, 101.277
177.985382, 101.270
178.321838, 101.260
178.658295, 101.245
178.994751, 101.224
179.331207, 101.199
179.667664, 101.174
180.004120, 101.151
180.340576, 101.133
180.677032, 101.120
181.013489, 101.109
181.349945, 101.096
181.686401, 101.078
182.022858, 101.053
182.359314, 101.025
182.695770, 100.998
183.032227, 100.976
183.368683, 100.960
183.705139, 100.947
184.041595, 100.931
184.378052, 100.909
184.714508, 100.879
185.050964, 100.840
185.387421, 100.798
185.723877, 100.756
186.060333, 100.715
186.396790, 100.676
186.733246, 100.636
187.069702, 100.595
187.406158, 100.552
187.742615, 100.510
188.079071, 100.474
188.415527, 100.447
188.751984, 100.431
189.088440, 100.426
189.424896, 100.427
189.761353, 100.433
190.097809, 100.439
190.434265, 100.442
190.770721, 100.444
191.107178, 100.444
191.443634, 100.447
191.780090, 100.456
192.116547, 100.476
192.453003, 100.506
192.789459, 100.545
193.125916, 100.589
193.462372, 100.635
193.798828, 100.681
194.135284, 100.727
194.471741, 100.775
194.808197, 100.824
195.144653, 100.874
195.481110, 100.923
195.817566, 100.968
196.154022, 101.009
196.490479, 101.046
196.826935, 101.085
197.163391, 101.132
197.499847, 101.188
197.836304, 101.251
198.172760, 101.317
198.509216, 101.379
198.845673, 101.433
199.182129, 101.477
199.518585, 101.515
199.855042, 101.551
200.191498, 101.590
200.527954, 101.633
200.864410, 101.678
201.200867, 101.724
201.537323, 101.767
201.873779, 101.807
202.210236, 101.844
202.546692, 101.878
202.883148, 101.913
203.219604, 101.948
203.556061, 101.984
203.892517, 102.021
204.228973, 102.056
204.565430, 102.089
204.901886, 102.118
205.238342, 102.145
205.574799, 102.172
205.911255, 102.200
206.247711, 102.229
206.584167, 102.258
206.920624, 102.283
207.257080, 102.301
207.593536, 102.315
207.929993, 102.327
208.266449, 102.340
208.602905, 102.351
208.939362, 102.350
209.275818, 102.320
209.612274, 102.253
209.948730, 102.151
210.285187, 102.035
210.621643, 101.945
210.958099, 101.921
211.294556, 101.987
211.631012, 102.133
211.967468, 102.325
212.303925, 102.517
212.640381, 102.680
212.976837, 102.800
213.313293, 102.885
213.649750, 102.949
213.986206, 103.006
214.322662, 103.064
214.659119, 103.121
214.995575, 103.174
215.332031, 103.218
215.668488, 103.255
216.004944, 103.289
216.341400, 103.322
216.677856, 103.355
217.014313, 103.388
217.350769, 103.419
217.687225, 103.448
218.023682, 103.475
218.360138, 103.502
218.696594, 103.530
219.033051, 103.557
219.369507, 103.582
219.705963, 103.602
220.042419, 103.618
220.378876, 103.632
220.715332, 103.648
221.051788, 103.666
221.388245, 103.685
221.724701, 103.705
222.061157, 103.723
222.397614, 103.737
222.734070, 103.750
223.070526, 103.760
223.406982, 103.771
223.743439, 103.781
224.079895, 103.791
224.416351, 103.801
224.752808, 103.810
225.089264, 103.819
225.425720, 103.827
225.762177, 103.834
226.098633, 103.839
226.435089, 103.842
226.771545, 103.842
227.108002, 103.840
227.444458, 103.837
227.780914, 103.833
228.117371, 103.829
228.453827, 103.824
228.790283, 103.818
229.126740, 103.811
229.463196, 103.802
229.799652, 103.793
230.136108, 103.784
230.472565, 103.776
230.809021, 103.769
231.145477, 103.763
231.481934, 103.754
231.818390, 103.741
232.154846, 103.724
232.491302, 103.704
232.827759, 103.683
233.164215, 103.666
233.500671, 103.652
233.837128, 103.640
234.173584, 103.627
234.510040, 103.611
234.846497, 103.589
235.182953, 103.562
235.519409, 103.534
235.855865, 103.506
236.192322, 103.479
236.528778, 103.454
236.865234, 103.429
237.201691, 103.402
237.538147, 103.375
237.874603, 103.347
238.211060, 103.322
238.547516, 103.298
238.883972, 103.275
239.220428, 103.252
239.556885, 103.229
239.893341, 103.206
240.229797, 103.184
240.566254, 103.165
240.902710, 103.149
241.239166, 103.135
241.575623, 103.123
241.912079, 103.112
242.248535, 103.104
242.584991, 103.099
242.921448, 103.098
243.257904, 103.101
243.594360, 103.109
243.930817, 103.119
244.267273, 103.132
244.603729, 103.145
244.940186, 103.160
245.276642, 103.178
245.613098, 103.198
245.949554, 103.224
246.286011, 103.253
246.622467, 103.286
246.958923, 103.320
247.295380, 103.353
247.631836, 103.385
247.968292, 103.413
248.304749, 103.440
248.641205, 103.466
248.977661, 103.492
249.314117, 103.519
249.650574, 103.546
249.987030, 103.573
250.323486, 103.599
250.659943, 103.623
250.996399, 103.646
251.332855, 103.667
251.669312, 103.685
252.005768, 103.702
252.342224, 103.717
252.678680, 103.731
253.015137, 103.743
253.351593, 103.756
253.688049, 103.767
254.024506, 103.779
254.360962, 103.789
254.697418, 103.799
255.033875, 103.809
255.370331, 103.818
255.706787, 103.827
256.043243, 103.834
256.379700, 103.839
256.716156, 103.842
257.052612, 103.844
257.389069, 103.845
257.725525, 103.847
258.061981, 103.851
258.398438, 103.856
258.734894, 103.860
259.071350, 103.861
259.407806, 103.859
259.744263, 103.854
260.080719, 103.849
260.417175, 103.845
260.753632, 103.844
261.090088, 103.845
261.426544, 103.847
261.763000, 103.848
262.099457, 103.847
262.435913, 103.843
262.772369, 103.839
263.108826, 103.835
263.445282, 103.831
263.781738, 103.828
264.118195, 103.823
264.454651, 103.818
264.791107, 103.811
265.127563, 103.805
265.464020, 103.799
265.800476, 103.794
266.136932, 103.790
266.473389, 103.786
266.809845, 103.781
267.146301, 103.777
267.482758, 103.773
267.819214, 103.770
268.155670, 103.768
268.492126, 103.767
268.828583, 103.764
269.165039, 103.760
269.501495, 103.753
269.837952, 103.746
270.174408, 103.740
270.510864, 103.737
270.847321, 103.737
271.183777, 103.740
271.520233, 103.745
271.856689, 103.751
272.193146, 103.756
272.529602, 103.761
272.866058, 103.766
273.202515, 103.771
273.538971, 103.776
273.875427, 103.782
274.211884, 103.787
274.548340, 103.792
274.884796, 103.796
275.221252, 103.800
275.557709, 103.804
275.894165, 103.807
276.230621, 103.811
276.567078, 103.815
276.903534, 103.818
277.239990, 103.821
277.576447, 103.823
277.912903, 103.825
278.249359, 103.826
278.585815, 103.827
278.922272, 103.827
279.258728, 103.827
279.595184, 103.827
279.931641, 103.826
280.268097, 103.825
280.604553, 103.822
280.941010, 103.820
281.277466, 103.817
281.613922, 103.814
281.950378, 103.811
282.286835, 103.808
282.623291, 103.804
282.959747, 103.800
283.296204, 103.795
283.632660, 103.790
283.969116, 103.786
284.305573, 103.783
284.642029, 103.780
284.978485, 103.778
285.314941, 103.775
285.651398, 103.771
285.987854, 103.766
286.324310, 103.760
286.660767, 103.754
286.997223, 103.747
287.333679, 103.741
287.670135, 103.735
288.006592, 103.729
288.343048, 103.724
288.679504, 103.719
289.015961, 103.716
289.352417, 103.714
289.688873, 103.713
290.025330, 103.712
290.361786, 103.711
290.698242, 103.709
291.034698, 103.707
291.371155, 103.706
291.707611, 103.706
292.044067, 103.708
292.380524, 103.711
292.716980, 103.714
293.053436, 103.718
293.389893, 103.722
293.726349, 103.726
294.062805, 103.729
294.399261, 103.732
294.735718, 103.735
295.072174, 103.736
295.408630, 103.737
295.745087, 103.737
296.081543, 103.737
296.417999, 103.739
296.754456, 103.741
297.090912, 103.744
297.427368, 103.745
297.763824, 103.746
298.100281, 103.744
298.436737, 103.742
298.773193, 103.740
299.109650, 103.739
299.446106, 103.738
299.782562, 103.738
300.119019, 103.739
300.455475, 103.741
300.791931, 103.744
301.128387, 103.749
301.464844, 103.759
301.801300, 103.774
302.137756, 103.793
302.474213, 103.819
302.810669, 103.848
303.147125, 103.881
303.483582, 103.915
303.820038, 103.949
304.156494, 103.980
304.492950, 104.006
304.829407, 104.027
305.165863, 104.043
305.502319, 104.054
305.838776, 104.060
306.175232, 104.064
306.511688, 104.065
306.848145, 104.065
307.184601, 104.065
307.521057, 104.064
307.857513, 104.062
308.193970, 104.061
308.530426, 104.060
308.866882, 104.059
309.203339, 104.058
309.539795, 104.058
309.876251, 104.057
310.212708, 104.055
310.549164, 104.052
310.885620, 104.049
311.222076, 104.045
311.558533, 104.042
311.894989, 104.040
312.231445, 104.036
312.567902, 104.031
312.904358, 104.022
313.240814, 104.011
313.577271, 103.999
313.913727, 103.988
314.250183, 103.977
314.586639, 103.968
314.923096, 103.957
315.259552, 103.942
315.596008, 103.924
315.932465, 103.903
316.268921, 103.887
316.605377, 103.881
316.941833, 103.891
317.278290, 103.917
317.614746, 103.955
317.951202, 103.999
318.287659, 104.041
318.624115, 104.076
318.960571, 104.100
319.297028, 104.114
319.633484, 104.120
319.969940, 104.122
320.306396, 104.123
320.642853, 104.122
320.979309, 104.121
321.315765, 104.118
321.652222, 104.115
321.988678, 104.109
322.325134, 104.103
322.661591, 104.095
322.998047, 104.087
323.334503, 104.079
323.670959, 104.071
324.007416, 104.063
324.343872, 104.056
324.680328, 104.052
325.016785, 104.050
325.353241, 104.052
325.689697, 104.059
326.026154, 104.071
326.362610, 104.088
326.699066, 104.110
327.035522, 104.137
327.371979, 104.168
327.708435, 104.200
328.044891, 104.232
328.381348, 104.260
328.717804, 104.285
329.054260, 104.305
329.390717, 104.321
329.727173, 104.333
330.063629, 104.341
330.400085, 104.346
330.736542, 104.346
331.072998, 104.344
331.409454, 104.343
331.745911, 104.342
332.082367, 104.342
332.418823, 104.339
332.755280, 104.328
333.091736, 104.307
333.428192, 104.280
333.764648, 104.256
334.101105, 104.246
334.437561, 104.258
334.774017, 104.292
335.110474, 104.340
335.446930, 104.387
335.783386, 104.422
336.119843, 104.441
336.456299, 104.445
336.792755, 104.441
337.129211, 104.437
337.465668, 104.436
337.802124, 104.438
338.138580, 104.442
338.475037, 104.443
338.811493, 104.443
339.147949, 104.441
339.484406, 104.441
339.820862, 104.443
340.157318, 104.446
340.493774, 104.448
340.830231, 104.449
341.166687, 104.448
341.503143, 104.448
341.839600, 104.449
342.176056, 104.451
342.512512, 104.453
342.848969, 104.454
343.185425, 104.455
343.521881, 104.456
343.858337, 104.457
344.194794, 104.457
344.531250, 104.458
344.867706, 104.456
345.204163, 104.453
345.540619, 104.449
345.877075, 104.446
346.213531, 104.445
346.549988, 104.447
346.886444, 104.451
347.222900, 104.455
347.559357, 104.458
347.895813, 104.458
348.232269, 104.456
348.568726, 104.454
348.905182, 104.452
349.241638, 104.451
349.578094, 104.451
349.914551, 104.450
350.251007, 104.449
350.587463, 104.448
350.923920, 104.448
351.260376, 104.450
351.596832, 104.454
351.933289, 104.458
352.269745, 104.463
352.606201, 104.467
352.942657, 104.470
353.279114, 104.473
353.615570, 104.477
353.952026, 104.481
354.288483, 104.487
354.624939, 104.492
354.961395, 104.498
355.297852, 104.505
355.634308, 104.511
355.970764, 104.518
356.307220, 104.524
356.643677, 104.529
356.980133, 104.533
357.316589, 104.535
357.653046, 104.537
357.989502, 104.538
358.325958, 104.540
358.662415, 104.542
358.998871, 104.544
359.335327, 104.545
359.671783, 104.545
360.008240, 104.544
